WE(1).Potential (V)	WE(1).Current (A)	Time (s)	Scan
0.12176513671875	7.415771484375E-07	81.0819727952877	1
0.124053955078125	1.21002197265625E-06	81.1063867952261	1
0.12640380859375	1.6314697265625E-06	81.1308007951644	1
0.1287841796875	2.020263671875E-06	81.1552147951028	1
0.131134033203125	2.3828125E-06	81.1796287950411	1
0.133544921875	2.7252197265625E-06	81.2040427949795	1
0.1358642578125	3.04962158203125E-06	81.2284567949179	1
0.138885498046875	3.36944580078125E-06	81.2528707948562	1
0.14129638671875	3.662109375E-06	81.2772847947946	1
0.143707275390625	3.9453125E-06	81.3016987947329	1
0.1461181640625	4.21783447265625E-06	81.3261127946713	1
0.148590087890625	4.4830322265625E-06	81.3505267946097	1
0.1510009765625	4.73388671875E-06	81.374940794548	1
0.15350341796875	4.962158203125E-06	81.3993547944864	1
0.155853271484375	5.194091796875E-06	81.4237687944247	1
0.15826416015625	5.426025390625E-06	81.4481827943631	1
0.160736083984375	5.65185546875E-06	81.4725967943015	1
0.1632080078125	5.865478515625E-06	81.4970107942398	1
0.16552734375	6.072998046875E-06	81.5214247941782	1
0.168060302734375	6.2774658203125E-06	81.5458387941165	1
0.17047119140625	6.4788818359375E-06	81.5702527940549	1
0.17291259765625	6.6741943359375E-06	81.5946667939933	1
0.175323486328125	6.866455078125E-06	81.6190807939316	1
0.177734375	7.049560546875E-06	81.64349479387	1
0.18011474609375	7.2357177734375E-06	81.6679087938084	1
0.1826171875	7.4127197265625E-06	81.6923227937467	1
0.185028076171875	7.586669921875E-06	81.7167367936851	1
0.187408447265625	7.7545166015625E-06	81.7411507936234	1
0.18988037109375	7.928466796875E-06	81.7655647935618	1
0.192291259765625	8.0963134765625E-06	81.7899787935002	1
0.194793701171875	8.26416015625E-06	81.8143927934385	1
0.19720458984375	8.428955078125E-06	81.8388067933769	1
0.199615478515625	8.5845947265625E-06	81.8632207933152	1
0.201995849609375	8.746337890625E-06	81.8876347932536	1
0.20452880859375	8.905029296875E-06	81.912048793192	1
0.2069091796875	9.0576171875E-06	81.9364627931303	1
0.2093505859375	9.2071533203125E-06	81.9608767930687	1
0.21173095703125	9.36279296875E-06	81.985290793007	1
0.2142333984375	9.515380859375E-06	82.0097047929454	1
0.216644287109375	9.6710205078125E-06	82.0341187928838	1
0.2191162109375	9.8175048828125E-06	82.0585327928221	1
0.221527099609375	9.9639892578125E-06	82.0829467927605	1
0.2239990234375	1.0113525390625E-05	82.1073607926988	1
0.22637939453125	1.02630615234375E-05	82.1317747926372	1
0.228759765625	1.0406494140625E-05	82.1561887925756	1
0.231292724609375	1.05499267578125E-05	82.1806027925139	1
0.233673095703125	1.0693359375E-05	82.2050167924523	1
0.236114501953125	1.083984375E-05	82.2294307923906	1
0.23858642578125	1.0986328125E-05	82.253844792329	1
0.24102783203125	1.11297607421875E-05	82.2782587922674	1
0.24346923828125	1.1273193359375E-05	82.3026727922057	1
0.245849609375	1.1419677734375E-05	82.3270867921441	1
0.24835205078125	1.15631103515625E-05	82.3515007920824	1
0.250701904296875	1.170654296875E-05	82.3759147920208	1
0.25311279296875	1.1846923828125E-05	82.4003287919592	1
0.25555419921875	1.19903564453125E-05	82.4247427918975	1
0.258026123046875	1.21368408203125E-05	82.4491567918359	1
0.260467529296875	1.22833251953125E-05	82.4735707917743	1
0.26287841796875	1.24237060546875E-05	82.4979847917126	1
0.265289306640625	1.25701904296875E-05	82.522398791651	1
0.26776123046875	1.27166748046875E-05	82.5468127915893	1
0.270172119140625	1.28631591796875E-05	82.5712267915277	1
0.272613525390625	1.30035400390625E-05	82.5956407914661	1
0.27508544921875	1.31561279296875E-05	82.6200547914044	1
0.277496337890625	1.3299560546875E-05	82.6444687913428	1
0.2799072265625	1.34490966796875E-05	82.6688827912811	1
0.2823486328125	1.36016845703125E-05	82.6932967912195	1
0.2847900390625	1.37481689453125E-05	82.7177107911579	1
0.287261962890625	1.3897705078125E-05	82.7421247910962	1
0.28955078125	1.40533447265625E-05	82.7665387910346	1
0.29205322265625	1.4208984375E-05	82.7909527909729	1
0.29449462890625	1.43707275390625E-05	82.8153667909113	1
0.296905517578125	1.45294189453125E-05	82.8397807908497	1
0.299407958984375	1.468505859375E-05	82.864194790788	1
0.301849365234375	1.48529052734375E-05	82.8886087907264	1
0.30426025390625	1.5020751953125E-05	82.9130227906647	1
0.306671142578125	1.51885986328125E-05	82.9374367906031	1
0.30908203125	1.5362548828125E-05	82.9618507905415	1
0.3115234375	1.553955078125E-05	82.9862647904798	1
0.31390380859375	1.57196044921875E-05	83.0106787904182	1
0.31640625	1.59149169921875E-05	83.0350927903565	1
0.318817138671875	1.611328125E-05	83.0595067902949	1
0.321136474609375	1.63116455078125E-05	83.0839207902333	1
0.323638916015625	1.65252685546875E-05	83.1083347901716	1
0.326080322265625	1.67449951171875E-05	83.13274879011	1
0.328582763671875	1.69708251953125E-05	83.1571627900483	1
0.3309326171875	1.7205810546875E-05	83.1815767899867	1
0.333404541015625	1.74560546875E-05	83.2059907899251	1
0.335784912109375	1.77154541015625E-05	83.2304047898634	1
0.3382568359375	1.79931640625E-05	83.2548187898018	1
0.340667724609375	1.82708740234375E-05	83.2792327897401	1
0.343048095703125	1.85638427734375E-05	83.3036467896785	1
0.34552001953125	1.88812255859375E-05	83.3280607896169	1
0.347991943359375	1.92047119140625E-05	83.3524747895552	1
0.350341796875	1.954345703125E-05	83.3768887894936	1
0.352783203125	1.99066162109375E-05	83.401302789432	1
0.355224609375	2.0281982421875E-05	83.4257167893703	1
0.357666015625	2.06756591796875E-05	83.4501307893087	1
0.360107421875	2.10906982421875E-05	83.474544789247	1
0.362518310546875	2.1514892578125E-05	83.4989587891854	1
0.364898681640625	2.1954345703125E-05	83.5233727891238	1
0.367401123046875	2.2418212890625E-05	83.5477867890621	1
0.369781494140625	2.28973388671875E-05	83.5722007890005	1
0.372222900390625	2.33917236328125E-05	83.5966147889388	1
0.374664306640625	2.39044189453125E-05	83.6210287888772	1
0.377105712890625	2.442626953125E-05	83.6454427888156	1
0.3795166015625	2.49664306640625E-05	83.6698567887539	1
0.381927490234375	2.55157470703125E-05	83.6942707886923	1
0.384307861328125	2.607421875E-05	83.7186847886306	1
0.386749267578125	2.6641845703125E-05	83.743098788569	1
0.38922119140625	2.72216796875E-05	83.7675127885074	1
0.391632080078125	2.78045654296875E-05	83.7919267884457	1
0.39410400390625	2.8387451171875E-05	83.8163407883841	1
0.396453857421875	2.89825439453125E-05	83.8407547883224	1
0.39892578125	2.95623779296875E-05	83.8651687882608	1
0.40130615234375	3.01544189453125E-05	83.8895827881992	1
0.404266357421875	3.076171875E-05	83.9139967881375	1
0.406707763671875	3.13385009765625E-05	83.9384107880759	1
0.409149169921875	3.19091796875E-05	83.9628247880142	1
0.411590576171875	3.24737548828125E-05	83.9872387879526	1
0.4140625	3.30322265625E-05	84.011652787891	1
0.41650390625	3.3575439453125E-05	84.0360667878293	1
0.4188232421875	3.4100341796875E-05	84.0604807877677	1
0.42132568359375	3.460693359375E-05	84.084894787706	1
0.42376708984375	3.5101318359375E-05	84.1093087876444	1
0.42620849609375	3.558349609375E-05	84.1337227875828	1
0.42864990234375	3.6041259765625E-05	84.1581367875211	1
0.431060791015625	3.64959716796875E-05	84.1825507874595	1
0.4334716796875	3.69232177734375E-05	84.2069647873979	1
0.4359130859375	3.73504638671875E-05	84.2313787873362	1
0.4383544921875	3.775634765625E-05	84.2557927872746	1
0.4407958984375	3.81500244140625E-05	84.2802067872129	1
0.44329833984375	3.85284423828125E-05	84.3046207871513	1
0.445648193359375	3.8916015625E-05	84.3290347870897	1
0.44818115234375	3.92974853515625E-05	84.353448787028	1
0.450531005859375	3.96881103515625E-05	84.3778627869664	1
0.452972412109375	4.00848388671875E-05	84.4022767869047	1
0.4554443359375	4.05029296875E-05	84.4266907868431	1
0.457916259765625	4.09423828125E-05	84.4511047867815	1
0.460296630859375	4.1412353515625E-05	84.4755187867198	1
0.4627685546875	4.1912841796875E-05	84.4999327866582	1
0.46514892578125	4.24560546875E-05	84.5243467865965	1
0.467559814453125	4.30511474609375E-05	84.5487607865349	1
0.470062255859375	4.37164306640625E-05	84.5731747864733	1
0.47247314453125	4.44305419921875E-05	84.5975887864116	1
0.474945068359375	4.5208740234375E-05	84.62200278635	1
0.477325439453125	4.605712890625E-05	84.6464167862883	1
0.47979736328125	4.69940185546875E-05	84.6708307862267	1
0.482147216796875	4.80255126953125E-05	84.6952447861651	1
0.484649658203125	4.9139404296875E-05	84.7196587861034	1
0.48699951171875	5.01708984375E-05	84.7440727860418	1
0.489532470703125	5.1544189453125E-05	84.7684867859801	1
0.49200439453125	5.2978515625E-05	84.7929007859185	1
0.494384765625	5.4534912109375E-05	84.8173147858569	1
0.496826171875	5.621337890625E-05	84.8417287857952	1
0.499237060546875	5.8013916015625E-05	84.8661427857336	1
0.50164794921875	5.999755859375E-05	84.8905567856719	1
0.504058837890625	6.21337890625E-05	84.9149707856103	1
0.5064697265625	6.439208984375E-05	84.9393847855487	1
0.50897216796875	6.689453125E-05	84.963798785487	1
0.5113525390625	6.951904296875E-05	84.9882127854254	1
0.5137939453125	7.2357177734375E-05	85.0126267853638	1
0.5162353515625	7.5347900390625E-05	85.0370407853021	1
0.518707275390625	7.8521728515625E-05	85.0614547852405	1
0.52105712890625	8.1817626953125E-05	85.0858687851788	1
0.523468017578125	8.538818359375E-05	85.1102827851172	1
0.52587890625	8.9080810546875E-05	85.1346967850556	1
0.52838134765625	9.2987060546875E-05	85.1591107849939	1
0.530792236328125	9.7015380859375E-05	85.1835247849323	1
0.533233642578125	0.00010125732421875	85.2079387848706	1
0.53564453125	0.000105621337890625	85.232352784809	1
0.537994384765625	0.00011016845703125	85.2567667847474	1
0.54046630859375	0.000114837646484375	85.2811807846857	1
0.542938232421875	0.00011968994140625	85.3055947846241	1
0.54534912109375	0.0001246337890625	85.3300087845624	1
0.5477294921875	0.00012969970703125	85.3544227845008	1
0.550140380859375	0.000134765625	85.3788367844392	1
0.552520751953125	0.00014013671875	85.4032507843775	1
0.55499267578125	0.000145660400390625	85.4276647843159	1
0.557464599609375	0.000151153564453125	85.4520787842542	1
0.559906005859375	0.000156707763671875	85.4764927841926	1
0.56231689453125	0.000162353515625	85.500906784131	1
0.56475830078125	0.000167999267578125	85.5253207840693	1
0.567169189453125	0.000173736572265625	85.5497347840077	1
0.56964111328125	0.000179473876953125	85.574148783946	1
0.571990966796875	0.0001851806640625	85.5985627838844	1
0.574432373046875	0.000190887451171875	85.6229767838228	1
0.576873779296875	0.000196563720703125	85.6473907837611	1
0.579345703125	0.00020220947265625	85.6718047836995	1
0.581756591796875	0.000207794189453125	85.6962187836378	1
0.58416748046875	0.0002132568359375	85.7206327835762	1
0.58660888671875	0.000218719482421875	85.7450467835146	1
0.588958740234375	0.000223968505859375	85.7694607834529	1
0.591400146484375	0.00022918701171875	85.7938747833913	1
0.593902587890625	0.000234283447265625	85.8182887833296	1
0.59619140625	0.000239227294921875	85.842702783268	1
0.59869384765625	0.000243927001953125	85.8671167832064	1
0.601043701171875	0.000248443603515625	85.8915307831447	1
0.603485107421875	0.00025274658203125	85.9159447830831	1
0.605987548828125	0.000256927490234375	85.9403587830215	1
0.608367919921875	0.0002607421875	85.9647727829598	1
0.61083984375	0.000264312744140625	85.9891867828982	1
0.613250732421875	0.00026763916015625	86.0136007828365	1
0.61566162109375	0.00027069091796875	86.0380147827749	1
0.618133544921875	0.00027337646484375	86.0624287827133	1
0.6204833984375	0.000275787353515625	86.0868427826516	1
0.622955322265625	0.00027783203125	86.11125678259	1
0.625335693359375	0.000279571533203125	86.1356707825283	1
0.62786865234375	0.000280914306640625	86.1600847824667	1
0.6302490234375	0.000281890869140625	86.1844987824051	1
0.632720947265625	0.000282501220703125	86.2089127823434	1
0.63519287109375	0.00028271484375	86.2333267822818	1
0.637603759765625	0.000282562255859375	86.2577407822201	1
0.6400146484375	0.000282073974609375	86.2821547821585	1
0.642425537109375	0.000281219482421875	86.3065687820969	1
0.64495849609375	0.00028009033203125	86.3309827820352	1
0.647369384765625	0.000278594970703125	86.3553967819736	1
0.64984130859375	0.00027685546875	86.3798107819119	1
0.652191162109375	0.00027490234375	86.4042247818503	1
0.654693603515625	0.000272674560546875	86.4286387817887	1
0.65716552734375	0.000270294189453125	86.453052781727	1
0.659576416015625	0.00026776123046875	86.4774667816654	1
0.661956787109375	0.00026513671875	86.5018807816037	1
0.66448974609375	0.000262451171875	86.5262947815421	1
0.66693115234375	0.000259735107421875	86.5507087814805	1
0.669403076171875	0.00025701904296875	86.5751227814188	1
0.671905517578125	0.000254302978515625	86.5995367813572	1
0.67425537109375	0.00025164794921875	86.6239507812955	1
0.676727294921875	0.0002490234375	86.6483647812339	1
0.67919921875	0.0002464599609375	86.6727787811723	1
0.68157958984375	0.000243927001953125	86.6971927811106	1
0.684051513671875	0.000241455078125	86.721606781049	1
0.686492919921875	0.000239044189453125	86.7460207809874	1
0.688873291015625	0.000236724853515625	86.7704347809257	1
0.69134521484375	0.000234466552734375	86.7948487808641	1
0.693817138671875	0.00023223876953125	86.8192627808024	1
0.696197509765625	0.000230133056640625	86.8436767807408	1
0.69866943359375	0.000228118896484375	86.8680907806792	1
0.701141357421875	0.000226165771484375	86.8925047806175	1
0.70355224609375	0.0002242431640625	86.9169187805559	1
0.706024169921875	0.00022235107421875	86.9413327804942	1
0.70849609375	0.000220550537109375	86.9657467804326	1
0.71087646484375	0.00021881103515625	86.990160780371	1
0.71337890625	0.000217193603515625	87.0145747803093	1
0.715789794921875	0.000215545654296875	87.0389887802477	1
0.718170166015625	0.000213958740234375	87.063402780186	1
0.720672607421875	0.000212432861328125	87.0878167801244	1
0.723052978515625	0.00021099853515625	87.1122307800628	1
0.725555419921875	0.0002095947265625	87.1366447800011	1
0.72796630859375	0.000208221435546875	87.1610587799395	1
0.73040771484375	0.000206939697265625	87.1854727798778	1
0.732818603515625	0.0002056884765625	87.2098867798162	1
0.73529052734375	0.0002044677734375	87.2343007797546	1
0.737762451171875	0.00020330810546875	87.2587147796929	1
0.740203857421875	0.0002021484375	87.2831287796313	1
0.742706298828125	0.000201019287109375	87.3075427795696	1
0.7451171875	0.000199951171875	87.331956779508	1
0.747589111328125	0.000198944091796875	87.3563707794464	1
0.75006103515625	0.00019793701171875	87.3807847793847	1
0.75286865234375	0.00019696044921875	87.4051987793231	1
0.75592041015625	0.000196044921875	87.4296127792614	1
0.758056640625	0.000195220947265625	87.4540267791998	1
0.76019287109375	0.000194366455078125	87.4784407791382	1
0.76324462890625	0.000193603515625	87.5028547790765	1
0.76568603515625	0.000192840576171875	87.5272687790149	1
0.7672119140625	0.000192047119140625	87.5516827789533	1
0.7696533203125	0.0001912841796875	87.5760967788916	1
0.77239990234375	0.000190582275390625	87.60051077883	1
0.775146484375	0.00018988037109375	87.6249247787683	1
0.7781982421875	0.000189300537109375	87.6493387787067	1
0.77972412109375	0.00018878173828125	87.6737527786451	1
0.78216552734375	0.000188262939453125	87.6981667785834	1
0.78460693359375	0.00018768310546875	87.7225807785218	1
0.787353515625	0.000187164306640625	87.7469947784601	1
0.789794921875	0.00018670654296875	87.7714087783985	1
0.79193115234375	0.000186279296875	87.7958227783369	1
0.794677734375	0.000185882568359375	87.8202367782752	1
0.79620361328125	0.000185577392578125	87.8446507782136	1
0.79986572265625	0.000185302734375	87.8690647781519	1
0.8013916015625	0.000184967041015625	87.8934787780903	1
0.804443359375	0.000184661865234375	87.9178927780287	1
0.80657958984375	0.00018438720703125	87.942306777967	1
0.80963134765625	0.00018414306640625	87.9667207779054	1
0.8111572265625	0.000183990478515625	87.9911347778437	1
0.814208984375	0.00018389892578125	88.0155487777821	1
0.81634521484375	0.000183837890625	88.0399627777205	1
0.819091796875	0.00018377685546875	88.0643767776588	1
0.8209228515625	0.000183807373046875	88.0887907775972	1
0.82366943359375	0.000183837890625	88.1132047775355	1
0.82611083984375	0.000183868408203125	88.1376187774739	1
0.82855224609375	0.000183929443359375	88.1620327774123	1
0.831298828125	0.000184051513671875	88.1864467773506	1
0.8331298828125	0.000184173583984375	88.210860777289	1
0.8355712890625	0.000184356689453125	88.2352747772273	1
0.83892822265625	0.000184539794921875	88.2596887771657	1
0.84075927734375	0.000184722900390625	88.2841027771041	1
0.84320068359375	0.000184967041015625	88.3085167770424	1
0.8453369140625	0.00018524169921875	88.3329307769808	1
0.84808349609375	0.000185546875	88.3573447769191	1
0.85052490234375	0.000185882568359375	88.3817587768575	1
0.85235595703125	0.000186187744140625	88.4061727767959	1
0.85540771484375	0.000186553955078125	88.4305867767342	1
0.85784912109375	0.000186920166015625	88.4550007766726	1
0.860595703125	0.000187255859375	88.479414776611	1
0.86334228515625	0.0001876220703125	88.5038287765493	1
0.86517333984375	0.000187957763671875	88.5282427764877	1
0.86761474609375	0.00018829345703125	88.552656776426	1
0.87005615234375	0.00018865966796875	88.5770707763644	1
0.872802734375	0.00018902587890625	88.6014847763028	1
0.875244140625	0.000189422607421875	88.6258987762411	1
0.877685546875	0.0001898193359375	88.6503127761795	1
0.87982177734375	0.00019024658203125	88.6747267761178	1
0.88226318359375	0.000190643310546875	88.6991407760562	1
0.88409423828125	0.0001910400390625	88.7235547759946	1
0.8868408203125	0.00019140625	88.7479687759329	1
0.88958740234375	0.000191741943359375	88.7723827758713	1
0.89202880859375	0.000192138671875	88.7967967758096	1
0.89447021484375	0.000192535400390625	88.821210775748	1
0.8966064453125	0.00019293212890625	88.8456247756864	1
0.89935302734375	0.000193328857421875	88.8700387756247	1
0.90179443359375	0.0001937255859375	88.8944527755631	1
0.90423583984375	0.000194091796875	88.9188667755014	1
0.90667724609375	0.000194427490234375	88.9432807754398	1
0.90911865234375	0.000194732666015625	88.9676947753782	1
0.9112548828125	0.000195037841796875	88.9921087753165	1
0.9136962890625	0.000195343017578125	89.0165227752549	1
0.91644287109375	0.000195648193359375	89.0409367751932	1
0.919189453125	0.000196014404296875	89.0653507751316	1
0.92132568359375	0.000196319580078125	89.08976477507	1
0.92376708984375	0.0001966552734375	89.1141787750083	1
0.92620849609375	0.000196990966796875	89.1385927749467	1
0.92864990234375	0.000197296142578125	89.163006774885	1
0.9307861328125	0.00019757080078125	89.1874207748234	1
0.93292236328125	0.0001978759765625	89.2118347747618	1
0.9368896484375	0.00019818115234375	89.2362487747001	1
0.93780517578125	0.00019842529296875	89.2606627746385	1
0.94085693359375	0.00019873046875	89.2850767745769	1
0.94329833984375	0.0001990966796875	89.3094907745152	1
0.94573974609375	0.000199462890625	89.3339047744536	1
0.94757080078125	0.00019989013671875	89.3583187743919	1
0.95062255859375	0.0002003173828125	89.3827327743303	1
0.9527587890625	0.00020074462890625	89.4071467742687	1
0.95550537109375	0.000201141357421875	89.431560774207	1
0.95794677734375	0.000201568603515625	89.4559747741454	1
0.9600830078125	0.000201995849609375	89.4803887740837	1
0.96221923828125	0.00020245361328125	89.5048027740221	1
0.96527099609375	0.000202880859375	89.5292167739605	1
0.9674072265625	0.000203369140625	89.5536307738988	1
0.97015380859375	0.000203948974609375	89.5780447738372	1
0.97259521484375	0.000204559326171875	89.6024587737755	1
0.97503662109375	0.000205169677734375	89.6268727737139	1
0.9771728515625	0.00020587158203125	89.6512867736523	1
0.9796142578125	0.000206512451171875	89.6757007735906	1
0.98175048828125	0.000207183837890625	89.700114773529	1
0.9844970703125	0.000207855224609375	89.7245287734673	1
0.98724365234375	0.0002086181640625	89.7489427734057	1
0.9893798828125	0.000209442138671875	89.7733567733441	1
0.9918212890625	0.0002103271484375	89.7977707732824	1
