WE(1).Potential (V)	WE(1).Current (A)	Time (s)	Scan	Column 5 (V/s)
0.00276794433593749	-4.16656494140625E-05	80.739638796152	1	0.2
0.00496826171875001	-3.4466552734375E-05	80.7518457961212	1	
0.0073822021484375	-3.0560302734375E-05	80.7640527960904	1	
0.009844970703125	-2.7972412109375E-05	80.7762597960595	1	
0.012286376953125	-2.60650634765625E-05	80.7884667960287	1	
0.014697265625	-2.45513916015625E-05	80.8006737959979	1	
0.0171478271484375	-2.33001708984375E-05	80.8128807959671	1	
0.0195831298828125	-2.22412109375E-05	80.8250877959363	1	
0.0220062255859375	-2.13134765625E-05	80.8372947959055	1	
0.0244384765625	-2.04925537109375E-05	80.8495017958746	1	
0.02689208984375	-1.97509765625E-05	80.8617087958438	1	
0.029327392578125	-1.90704345703125E-05	80.873915795813	1	
0.0317626953125	-1.84478759765625E-05	80.8861227957822	1	
0.034197998046875	-1.787109375E-05	80.8983297957514	1	
0.036639404296875	-1.73309326171875E-05	80.9105367957205	1	
0.0390594482421875	-1.68304443359375E-05	80.9227437956897	1	
0.041522216796875	-1.63543701171875E-05	80.9349507956589	1	
0.043951416015625	-1.5899658203125E-05	80.9471577956281	1	
0.046392822265625	-1.5472412109375E-05	80.9593647955973	1	
0.048834228515625	-1.50665283203125E-05	80.9715717955664	1	
0.051483154296875	-1.468505859375E-05	80.9837787955356	1	
0.053985595703125	-1.4312744140625E-05	80.9959857955048	1	
0.05633544921875	-1.395263671875E-05	81.008192795474	1	
0.0587158203125	-1.361083984375E-05	81.0203997954432	1	
0.061187744140625	-1.32781982421875E-05	81.0326067954123	1	
0.063629150390625	-1.29608154296875E-05	81.0448137953815	1	
0.0660400390625	-1.2652587890625E-05	81.0570207953507	1	
0.0684814453125	-1.23565673828125E-05	81.0692277953199	1	
0.070892333984375	-1.207275390625E-05	81.0814347952891	1	
0.0733642578125	-1.17889404296875E-05	81.0936417952582	1	
0.075836181640625	-1.15203857421875E-05	81.1058487952274	1	
0.078277587890625	-1.12579345703125E-05	81.1180557951966	1	
0.0806884765625	-1.10015869140625E-05	81.1302627951658	1	
0.08306884765625	-1.07574462890625E-05	81.142469795135	1	
0.085540771484375	-1.051025390625E-05	81.1546767951041	1	
0.087982177734375	-1.0272216796875E-05	81.1668837950733	1	
0.090423583984375	-1.0040283203125E-05	81.1790907950425	1	
0.092926025390625	-9.814453125E-06	81.1912977950117	1	
0.09527587890625	-9.5947265625E-06	81.2035047949809	1	
0.097625732421875	-9.3780517578125E-06	81.21571179495	1	
0.100189208984375	-9.1705322265625E-06	81.2279187949192	1	
0.10260009765625	-8.9599609375E-06	81.2401257948884	1	
0.10516357421875	-8.7615966796875E-06	81.2523327948576	1	
0.10760498046875	-8.5693359375E-06	81.2645397948268	1	
0.11004638671875	-8.3770751953125E-06	81.2767467947959	1	
0.112518310546875	-8.1878662109375E-06	81.2889537947651	1	
0.114898681640625	-7.9986572265625E-06	81.3011607947343	1	
0.1173095703125	-7.8155517578125E-06	81.3133677947035	1	
0.11981201171875	-7.635498046875E-06	81.3255747946727	1	
0.122222900390625	-7.45849609375E-06	81.3377817946418	1	
0.124725341796875	-7.28759765625E-06	81.349988794611	1	
0.1270751953125	-7.1197509765625E-06	81.3621957945802	1	
0.129486083984375	-6.951904296875E-06	81.3744027945494	1	
0.131988525390625	-6.7840576171875E-06	81.3866097945186	1	
0.134368896484375	-6.622314453125E-06	81.3988167944877	1	
0.136810302734375	-6.463623046875E-06	81.4110237944569	1	
0.139251708984375	-6.3079833984375E-06	81.4232307944261	1	
0.1416015625	-6.15234375E-06	81.4354377943953	1	
0.144073486328125	-6.0028076171875E-06	81.4476447943645	1	
0.146514892578125	-5.853271484375E-06	81.4598517943336	1	
0.148956298828125	-5.7037353515625E-06	81.4720587943028	1	
0.15142822265625	-5.560302734375E-06	81.484265794272	1	
0.153839111328125	-5.419921875E-06	81.4964727942412	1	
0.156280517578125	-5.279541015625E-06	81.5086797942104	1	
0.15863037109375	-5.13916015625E-06	81.5208867941795	1	
0.161041259765625	-4.998779296875E-06	81.5330937941487	1	
0.16357421875	-4.8541259765625E-06	81.5453007941179	1	
0.165924072265625	-4.72137451171875E-06	81.5575077940871	1	
0.168426513671875	-4.59136962890625E-06	81.5697147940563	1	
0.17083740234375	-4.46380615234375E-06	81.5819217940254	1	
0.17327880859375	-4.33441162109375E-06	81.5941287939946	1	
0.175811767578125	-4.2047119140625E-06	81.6063357939638	1	
0.178131103515625	-4.07989501953125E-06	81.618542793933	1	
0.18060302734375	-3.95782470703125E-06	81.6307497939022	1	
0.1829833984375	-3.84033203125E-06	81.6429567938713	1	
0.185394287109375	-3.7152099609375E-06	81.6551637938405	1	
0.1878662109375	-3.59710693359375E-06	81.6673707938097	1	
0.190277099609375	-3.4796142578125E-06	81.6795777937789	1	
0.192718505859375	-3.36334228515625E-06	81.6917847937481	1	
0.1951904296875	-3.25469970703125E-06	81.7039917937173	1	
0.1976318359375	-3.1390380859375E-06	81.7161987936864	1	
0.20001220703125	-3.02703857421875E-06	81.7284057936556	1	
0.202545166015625	-2.91595458984375E-06	81.7406127936248	1	
0.2049560546875	-2.80426025390625E-06	81.752819793594	1	
0.207366943359375	-2.6983642578125E-06	81.7650267935632	1	
0.209747314453125	-2.5927734375E-06	81.7772337935323	1	
0.21221923828125	-2.48809814453125E-06	81.7894407935015	1	
0.214691162109375	-2.38555908203125E-06	81.8016477934707	1	
0.217132568359375	-2.27783203125E-06	81.8138547934399	1	
0.219512939453125	-2.1759033203125E-06	81.8260617934091	1	
0.221954345703125	-2.0758056640625E-06	81.8382687933782	1	
0.224334716796875	-1.97967529296875E-06	81.8504757933474	1	
0.226806640625	-1.88262939453125E-06	81.8626827933166	1	
0.229278564453125	-1.78070068359375E-06	81.8748897932858	1	
0.231658935546875	-1.6845703125E-06	81.887096793255	1	
0.234130859375	-1.58782958984375E-06	81.8993037932241	1	
0.23651123046875	-1.48895263671875E-06	81.9115107931933	1	
0.238983154296875	-1.400146484375E-06	81.9237177931625	1	
0.241485595703125	-1.307373046875E-06	81.9359247931317	1	
0.243865966796875	-1.21246337890625E-06	81.9481317931009	1	
0.246307373046875	-1.11968994140625E-06	81.96033879307	1	
0.248687744140625	-1.026611328125E-06	81.9725457930392	1	
0.25115966796875	-9.393310546875E-07	81.9847527930084	1	
0.253509521484375	-8.4930419921875E-07	81.9969597929776	1	
0.2559814453125	-7.6385498046875E-07	82.0091667929468	1	
0.2584228515625	-6.787109375E-07	82.0213737929159	1	
0.260833740234375	-5.87158203125E-07	82.0335807928851	1	
0.263397216796875	-5.035400390625E-07	82.0457877928543	1	
0.26580810546875	-4.14642333984375E-07	82.0579947928235	1	
0.268218994140625	-3.3294677734375E-07	82.0702017927927	1	
0.27069091796875	-2.520751953125E-07	82.0824087927618	1	
0.273162841796875	-1.666259765625E-07	82.094615792731	1	
0.2755126953125	-8.2427978515625E-08	82.1068227927002	1	
0.277923583984375	4.39453125E-09	82.1190297926694	1	
0.280364990234375	8.636474609375E-08	82.1312367926386	1	
0.282745361328125	1.64337158203125E-07	82.1434437926077	1	
0.285247802734375	2.47650146484375E-07	82.1556507925769	1	
0.287567138671875	3.26751708984375E-07	82.1678577925461	1	
0.290069580078125	4.085693359375E-07	82.1800647925153	1	
0.29248046875	4.8553466796875E-07	82.1922717924845	1	
0.294830322265625	5.65185546875E-07	82.2044787924536	1	
0.297271728515625	6.451416015625E-07	82.2166857924228	1	
0.299713134765625	7.2174072265625E-07	82.228892792392	1	
0.30218505859375	8.001708984375E-07	82.2410997923612	1	
0.304534912109375	8.795166015625E-07	82.2533067923304	1	
0.30694580078125	9.5611572265625E-07	82.2655137922995	1	
0.309356689453125	1.03240966796875E-06	82.2777207922687	1	
0.311737060546875	1.10443115234375E-06	82.2899277922379	1	
0.314178466796875	1.1810302734375E-06	82.3021347922071	1	
0.31658935546875	1.260986328125E-06	82.3143417921763	1	
0.319000244140625	1.3421630859375E-06	82.3265487921454	1	
0.321380615234375	1.41876220703125E-06	82.3387557921146	1	
0.323883056640625	1.49658203125E-06	82.3509627920838	1	
0.32635498046875	1.56768798828125E-06	82.363169792053	1	
0.328704833984375	1.6485595703125E-06	82.3753767920222	1	
0.33111572265625	1.72760009765625E-06	82.3875837919913	1	
0.333526611328125	1.80755615234375E-06	82.3997907919605	1	
0.335906982421875	1.88568115234375E-06	82.4119977919297	1	
0.33837890625	1.96258544921875E-06	82.4242047918989	1	
0.3408203125	2.03826904296875E-06	82.4364117918681	1	
0.34320068359375	2.11700439453125E-06	82.4486187918372	1	
0.3455810546875	2.196044921875E-06	82.4608257918064	1	
0.348114013671875	2.27630615234375E-06	82.4730327917756	1	
0.350494384765625	2.35504150390625E-06	82.4852397917448	1	
0.352874755859375	2.43560791015625E-06	82.497446791714	1	
0.355377197265625	2.51434326171875E-06	82.5096537916831	1	
0.35772705078125	2.59429931640625E-06	82.5218607916523	1	
0.3602294921875	2.67669677734375E-06	82.5340677916215	1	
0.36260986328125	2.7587890625E-06	82.5462747915907	1	
0.364959716796875	2.84088134765625E-06	82.5584817915599	1	
0.367401123046875	2.92327880859375E-06	82.5706887915291	1	
0.369873046875	3.00018310546875E-06	82.5828957914982	1	
0.3729248046875	3.0938720703125E-06	82.5951027914674	1	
0.375244140625	3.17779541015625E-06	82.6073097914366	1	
0.37762451171875	3.26416015625E-06	82.6195167914058	1	
0.380126953125	3.3502197265625E-06	82.631723791375	1	
0.382568359375	3.4307861328125E-06	82.6439307913441	1	
0.384979248046875	3.51715087890625E-06	82.6561377913133	1	
0.387481689453125	3.60260009765625E-06	82.6683447912825	1	
0.389862060546875	3.68865966796875E-06	82.6805517912517	1	
0.392303466796875	3.779296875E-06	82.6927587912209	1	
0.39471435546875	3.86444091796875E-06	82.70496579119	1	
0.39715576171875	3.9508056640625E-06	82.7171727911592	1	
0.399566650390625	4.033203125E-06	82.7293797911284	1	
0.4019775390625	4.117431640625E-06	82.7415867910976	1	
0.404449462890625	4.205322265625E-06	82.7537937910668	1	
0.406890869140625	4.29046630859375E-06	82.7660007910359	1	
0.40936279296875	4.3768310546875E-06	82.7782077910051	1	
0.411773681640625	4.46075439453125E-06	82.7904147909743	1	
0.414215087890625	4.53948974609375E-06	82.8026217909435	1	
0.41668701171875	4.627685546875E-06	82.8148287909127	1	
0.419036865234375	4.7100830078125E-06	82.8270357908818	1	
0.421478271484375	4.79217529296875E-06	82.839242790851	1	
0.4239501953125	4.8748779296875E-06	82.8514497908202	1	
0.42633056640625	4.931640625E-06	82.8636567907894	1	
0.428863525390625	5.0140380859375E-06	82.8758637907586	1	
0.431243896484375	5.09033203125E-06	82.8880707907277	1	
0.433685302734375	5.1727294921875E-06	82.9002777906969	1	
0.4361572265625	5.2490234375E-06	82.9124847906661	1	
0.438507080078125	5.322265625E-06	82.9246917906353	1	
0.44091796875	5.3924560546875E-06	82.9368987906045	1	
0.443389892578125	5.4656982421875E-06	82.9491057905736	1	
0.44586181640625	5.535888671875E-06	82.9613127905428	1	
0.448211669921875	5.6121826171875E-06	82.973519790512	1	
0.45068359375	5.682373046875E-06	82.9857267904812	1	
0.453155517578125	5.7525634765625E-06	82.9979337904504	1	
0.45556640625	5.8197021484375E-06	83.0101407904195	1	
0.4580078125	5.8837890625E-06	83.0223477903887	1	
0.460479736328125	5.9539794921875E-06	83.0345547903579	1	
0.462890625	6.024169921875E-06	83.0467617903271	1	
0.465301513671875	6.09130859375E-06	83.0589687902963	1	
0.467742919921875	6.1553955078125E-06	83.0711757902654	1	
0.470123291015625	6.219482421875E-06	83.0833827902346	1	
0.472625732421875	6.28662109375E-06	83.0955897902038	1	
0.47503662109375	6.3507080078125E-06	83.107796790173	1	
0.4774169921875	6.4178466796875E-06	83.1200037901422	1	
0.47991943359375	6.48193359375E-06	83.1322107901113	1	
0.482391357421875	6.5460205078125E-06	83.1444177900805	1	
0.4847412109375	6.6070556640625E-06	83.1566247900497	1	
0.487213134765625	6.671142578125E-06	83.1688317900189	1	
0.489654541015625	6.7352294921875E-06	83.1810387899881	1	
0.492095947265625	6.79931640625E-06	83.1932457899572	1	
0.494537353515625	6.8603515625E-06	83.2054527899264	1	
0.49700927734375	6.9244384765625E-06	83.2176597898956	1	
0.49945068359375	6.988525390625E-06	83.2298667898648	1	
0.50177001953125	7.0465087890625E-06	83.242073789834	1	
0.5042724609375	7.110595703125E-06	83.2542807898031	1	
0.50665283203125	7.1746826171875E-06	83.2664877897723	1	
0.509124755859375	7.2418212890625E-06	83.2786947897415	1	
0.51153564453125	7.3028564453125E-06	83.2909017897107	1	
0.51397705078125	7.366943359375E-06	83.3031087896799	1	
0.516387939453125	7.43408203125E-06	83.315315789649	1	
0.51885986328125	7.4981689453125E-06	83.3275227896182	1	
0.521209716796875	7.568359375E-06	83.3397297895874	1	
0.52374267578125	7.6324462890625E-06	83.3519367895566	1	
0.526153564453125	7.6995849609375E-06	83.3641437895258	1	
0.528533935546875	7.763671875E-06	83.376350789495	1	
0.530975341796875	7.830810546875E-06	83.3885577894641	1	
0.533416748046875	7.89794921875E-06	83.4007647894333	1	
0.53582763671875	7.9681396484375E-06	83.4129717894025	1	
0.538299560546875	8.0352783203125E-06	83.4251787893717	1	
0.540740966796875	8.1024169921875E-06	83.4373857893409	1	
0.543182373046875	8.172607421875E-06	83.44959278931	1	
0.545623779296875	8.23974609375E-06	83.4617997892792	1	
0.548004150390625	8.3160400390625E-06	83.4740067892484	1	
0.5504150390625	8.3892822265625E-06	83.4862137892176	1	
0.55291748046875	8.45947265625E-06	83.4984207891868	1	
0.55535888671875	8.5357666015625E-06	83.5106277891559	1	
0.557769775390625	8.60595703125E-06	83.5228347891251	1	
0.560211181640625	8.6822509765625E-06	83.5350417890943	1	
0.56268310546875	8.7615966796875E-06	83.5472487890635	1	
0.56512451171875	8.837890625E-06	83.5594557890327	1	
0.567474365234375	8.917236328125E-06	83.5716627890018	1	
0.569976806640625	8.9874267578125E-06	83.583869788971	1	
0.5723876953125	9.06982421875E-06	83.5960767889402	1	
0.5748291015625	9.1522216796875E-06	83.6082837889094	1	
0.57733154296875	9.2315673828125E-06	83.6204907888786	1	
0.5797119140625	9.31396484375E-06	83.6326977888477	1	
0.582183837890625	9.3963623046875E-06	83.6449047888169	1	
0.584625244140625	9.478759765625E-06	83.6571117887861	1	
0.5870361328125	9.5611572265625E-06	83.6693187887553	1	
0.58941650390625	9.6466064453125E-06	83.6815257887245	1	
0.59185791015625	9.735107421875E-06	83.6937327886936	1	
0.5943603515625	9.8236083984375E-06	83.7059397886628	1	
0.5968017578125	9.9090576171875E-06	83.718146788632	1	
0.599151611328125	9.99755859375E-06	83.7303537886012	1	
0.601593017578125	1.00830078125E-05	83.7425607885704	1	
0.60400390625	1.0174560546875E-05	83.7547677885395	1	
0.606475830078125	1.02691650390625E-05	83.7669747885087	1	
0.60894775390625	1.036376953125E-05	83.7791817884779	1	
0.611328125	1.04583740234375E-05	83.7913887884471	1	
0.613739013671875	1.0546875E-05	83.8035957884163	1	
0.61614990234375	1.064453125E-05	83.8158027883854	1	
0.618682861328125	1.07421875E-05	83.8280097883546	1	
0.62103271484375	1.083984375E-05	83.8402167883238	1	
0.623504638671875	1.09405517578125E-05	83.852423788293	1	
0.625885009765625	1.10382080078125E-05	83.8646307882622	1	
0.628387451171875	1.1138916015625E-05	83.8768377882313	1	
0.630828857421875	1.1236572265625E-05	83.8890447882005	1	
0.63323974609375	1.134033203125E-05	83.9012517881697	1	
0.635711669921875	1.1444091796875E-05	83.9134587881389	1	
0.638153076171875	1.15478515625E-05	83.9256657881081	1	
0.64056396484375	1.1651611328125E-05	83.9378727880772	1	
0.64300537109375	1.17584228515625E-05	83.9500797880464	1	
0.64544677734375	1.18621826171875E-05	83.9622867880156	1	
0.64788818359375	1.19720458984375E-05	83.9744937879848	1	
0.65032958984375	1.20819091796875E-05	83.986700787954	1	
0.652801513671875	1.219482421875E-05	83.9989077879231	1	
0.655120849609375	1.23046875E-05	84.0111147878923	1	
0.657623291015625	1.241455078125E-05	84.0233217878615	1	
0.66009521484375	1.25274658203125E-05	84.0355287878307	1	
0.66253662109375	1.26434326171875E-05	84.0477357877999	1	
0.6649169921875	1.2762451171875E-05	84.059942787769	1	
0.667449951171875	1.28814697265625E-05	84.0721497877382	1	
0.6697998046875	1.29974365234375E-05	84.0843567877074	1	
0.672271728515625	1.31134033203125E-05	84.0965637876766	1	
0.6746826171875	1.3238525390625E-05	84.1087707876458	1	
0.6771240234375	1.3360595703125E-05	84.1209777876149	1	
0.6795654296875	1.3482666015625E-05	84.1331847875841	1	
0.682037353515625	1.36077880859375E-05	84.1453917875533	1	
0.6844482421875	1.373291015625E-05	84.1575987875225	1	
0.6868896484375	1.385498046875E-05	84.1698057874917	1	
0.68927001953125	1.39801025390625E-05	84.1820127874608	1	
0.69171142578125	1.4111328125E-05	84.19421978743	1	
0.69415283203125	1.424560546875E-05	84.2064267873992	1	
0.69659423828125	1.43768310546875E-05	84.2186337873684	1	
0.69903564453125	1.45111083984375E-05	84.2308407873376	1	
0.701385498046875	1.46392822265625E-05	84.2430477873068	1	
0.703948974609375	1.4776611328125E-05	84.2552547872759	1	
0.70635986328125	1.49169921875E-05	84.2674617872451	1	
0.70880126953125	1.5057373046875E-05	84.2796687872143	1	
0.71124267578125	1.52008056640625E-05	84.2918757871835	1	
0.713653564453125	1.5338134765625E-05	84.3040827871527	1	
0.716094970703125	1.54815673828125E-05	84.3162897871218	1	
0.71856689453125	1.5625E-05	84.328496787091	1	
0.72100830078125	1.5771484375E-05	84.3407037870602	1	
0.723419189453125	1.5924072265625E-05	84.3529107870294	1	
0.725860595703125	1.60675048828125E-05	84.3651177869986	1	
0.728240966796875	1.62200927734375E-05	84.3773247869677	1	
0.730712890625	1.636962890625E-05	84.3895317869369	1	
0.733123779296875	1.65191650390625E-05	84.4017387869061	1	
0.735595703125	1.6680908203125E-05	84.4139457868753	1	
0.73797607421875	1.68365478515625E-05	84.4261527868445	1	
0.740478515625	1.69921875E-05	84.4383597868136	1	
0.7427978515625	1.71539306640625E-05	84.4505667867828	1	
0.745330810546875	1.73126220703125E-05	84.462773786752	1	
0.747772216796875	1.7474365234375E-05	84.4749807867212	1	
0.750274658203125	1.763916015625E-05	84.4871877866904	1	
0.75286865234375	1.781005859375E-05	84.4993947866595	1	
0.75531005859375	1.79779052734375E-05	84.5116017866287	1	
0.75775146484375	1.81396484375E-05	84.5238087865979	1	
0.7598876953125	1.83135986328125E-05	84.5360157865671	1	
0.76324462890625	1.84814453125E-05	84.5482227865363	1	
0.765380859375	1.8658447265625E-05	84.5604297865054	1	
0.7684326171875	1.88323974609375E-05	84.5726367864746	1	
0.770263671875	1.900634765625E-05	84.5848437864438	1	
0.77301025390625	1.9183349609375E-05	84.597050786413	1	
0.7745361328125	1.9354248046875E-05	84.6092577863822	1	
0.7781982421875	1.953125E-05	84.6214647863513	1	
0.780029296875	1.97174072265625E-05	84.6336717863205	1	
0.78216552734375	1.99005126953125E-05	84.6458787862897	1	
0.784912109375	2.008056640625E-05	84.6580857862589	1	
0.787353515625	2.02606201171875E-05	84.6702927862281	1	
0.79010009765625	2.044677734375E-05	84.6824997861972	1	
0.79254150390625	2.0635986328125E-05	84.6947067861664	1	
0.79498291015625	2.08221435546875E-05	84.7069137861356	1	
0.79742431640625	2.10113525390625E-05	84.7191207861048	1	
0.79986572265625	2.120361328125E-05	84.731327786074	1	
0.80230712890625	2.138671875E-05	84.7435347860431	1	
0.80474853515625	2.15850830078125E-05	84.7557417860123	1	
0.80657958984375	2.1771240234375E-05	84.7679487859815	1	
0.80963134765625	2.1966552734375E-05	84.7801557859507	1	
0.81146240234375	2.21588134765625E-05	84.7923627859199	1	
0.8148193359375	2.235107421875E-05	84.804569785889	1	
0.81695556640625	2.25433349609375E-05	84.8167767858582	1	
0.81878662109375	2.2735595703125E-05	84.8289837858274	1	
0.82122802734375	2.2930908203125E-05	84.8411907857966	1	
0.82427978515625	2.31292724609375E-05	84.8533977857658	1	
0.82672119140625	2.33245849609375E-05	84.8656047857349	1	
0.82916259765625	2.3516845703125E-05	84.8778117857041	1	
0.83160400390625	2.3712158203125E-05	84.8900187856733	1	
0.8331298828125	2.39013671875E-05	84.9022257856425	1	
0.83587646484375	2.40997314453125E-05	84.9144327856117	1	
