WE(1).Potential (V)	WE(1).Current (A)	Time (s)	Scan	Column 5 (V/s)
0.00287475585937499	4.0740966796875E-07	145.096202633667	1	0.2
0.00504150390624999	1.19354248046875E-06	145.108409633636	1	
0.00747070312500001	1.92413330078125E-06	145.120616633606	1	
0.00959167480468751	2.62969970703125E-06	145.132823633575	1	
0.01204833984375	3.23089599609375E-06	145.145030633544	1	
0.0146728515625	3.83148193359375E-06	145.157237633513	1	
0.0172943115234375	4.3914794921875E-06	145.169444633482	1	
0.019403076171875	4.9591064453125E-06	145.181651633452	1	
0.021929931640625	5.523681640625E-06	145.193858633421	1	
0.0244720458984375	6.01806640625E-06	145.20606563339	1	
0.0265716552734375	6.475830078125E-06	145.218272633359	1	
0.0289398193359375	6.964111328125E-06	145.230479633328	1	
0.031719970703125	7.4066162109375E-06	145.242686633297	1	
0.0338592529296875	7.8765869140625E-06	145.254893633267	1	
0.03651123046875	8.2763671875E-06	145.267100633236	1	
0.038836669921875	8.697509765625E-06	145.279307633205	1	
0.04139404296875	9.11865234375E-06	145.291514633174	1	
0.043634033203125	9.4818115234375E-06	145.303721633143	1	
0.0465087890625	9.881591796875E-06	145.315928633113	1	
0.048272705078125	1.0247802734375E-05	145.328135633082	1	
0.05120849609375	1.06170654296875E-05	145.340342633051	1	
0.053497314453125	1.1004638671875E-05	145.35254963302	1	
0.055877685546875	1.13372802734375E-05	145.364756632989	1	
0.058624267578125	1.170654296875E-05	145.376963632958	1	
0.060791015625	1.1993408203125E-05	145.389170632928	1	
0.06378173828125	1.2335205078125E-05	145.401377632897	1	
0.065826416015625	1.26708984375E-05	145.413584632866	1	
0.068084716796875	1.3018798828125E-05	145.425791632835	1	
0.070526123046875	1.33056640625E-05	145.437998632804	1	
0.073089599609375	1.363525390625E-05	145.450205632774	1	
0.075286865234375	1.39129638671875E-05	145.462412632743	1	
0.077850341796875	1.42669677734375E-05	145.474619632712	1	
0.080291748046875	1.453857421875E-05	145.486826632681	1	
0.082794189453125	1.48223876953125E-05	145.49903363265	1	
0.085113525390625	1.51458740234375E-05	145.511240632619	1	
0.0877685546875	1.54144287109375E-05	145.523447632589	1	
0.08978271484375	1.572265625E-05	145.535654632558	1	
0.09259033203125	1.59912109375E-05	145.547861632527	1	
0.09503173828125	1.6265869140625E-05	145.560068632496	1	
0.09759521484375	1.66046142578125E-05	145.572275632465	1	
0.099822998046875	1.683349609375E-05	145.584482632435	1	
0.102386474609375	1.71356201171875E-05	145.596689632404	1	
0.104400634765625	1.73858642578125E-05	145.608896632373	1	
0.10711669921875	1.76605224609375E-05	145.621103632342	1	
0.10955810546875	1.80023193359375E-05	145.633310632311	1	
0.112060546875	1.8231201171875E-05	145.64551763228	1	
0.11431884765625	1.84906005859375E-05	145.65772463225	1	
0.116912841796875	1.8780517578125E-05	145.669931632219	1	
0.119232177734375	1.90032958984375E-05	145.682138632188	1	
0.121673583984375	1.9354248046875E-05	145.694345632157	1	
0.1240234375	1.9586181640625E-05	145.706552632126	1	
0.126434326171875	1.98272705078125E-05	145.718759632096	1	
0.12884521484375	2.012939453125E-05	145.730966632065	1	
0.131744384765625	2.03460693359375E-05	145.743173632034	1	
0.133544921875	2.06878662109375E-05	145.755380632003	1	
0.1361083984375	2.09014892578125E-05	145.767587631972	1	
0.13873291015625	2.11761474609375E-05	145.779794631941	1	
0.141082763671875	2.1490478515625E-05	145.792001631911	1	
0.143646240234375	2.17010498046875E-05	145.80420863188	1	
0.146209716796875	2.19696044921875E-05	145.816415631849	1	
0.148468017578125	2.2222900390625E-05	145.828622631818	1	
0.150543212890625	2.24853515625E-05	145.840829631787	1	
0.153533935546875	2.28302001953125E-05	145.853036631756	1	
0.15582275390625	2.301025390625E-05	145.865243631726	1	
0.1578369140625	2.3284912109375E-05	145.877450631695	1	
0.1607666015625	2.3541259765625E-05	145.889657631664	1	
0.162933349609375	2.3785400390625E-05	145.901864631633	1	
0.165283203125	2.410888671875E-05	145.914071631602	1	
0.1676025390625	2.432861328125E-05	145.926278631572	1	
0.170166015625	2.45758056640625E-05	145.938485631541	1	
0.172271728515625	2.48870849609375E-05	145.95069263151	1	
0.175262451171875	2.5091552734375E-05	145.962899631479	1	
0.177459716796875	2.54241943359375E-05	145.975106631448	1	
0.18011474609375	2.56317138671875E-05	145.987313631417	1	
0.182403564453125	2.5885009765625E-05	145.999520631387	1	
0.184814453125	2.61810302734375E-05	146.011727631356	1	
0.187103271484375	2.64068603515625E-05	146.023934631325	1	
0.189544677734375	2.66998291015625E-05	146.036141631294	1	
0.191925048828125	2.69256591796875E-05	146.048348631263	1	
0.194122314453125	2.71942138671875E-05	146.060555631233	1	
0.19683837890625	2.75299072265625E-05	146.072762631202	1	
0.199371337890625	2.77618408203125E-05	146.084969631171	1	
0.201416015625	2.8045654296875E-05	146.09717663114	1	
0.204498291015625	2.82958984375E-05	146.109383631109	1	
0.2066650390625	2.86285400390625E-05	146.121590631078	1	
0.208831787109375	2.89794921875E-05	146.133797631048	1	
0.21173095703125	2.92694091796875E-05	146.146004631017	1	
0.21392822265625	2.955322265625E-05	146.158211630986	1	
0.216278076171875	2.98858642578125E-05	146.170418630955	1	
0.218994140625	3.0194091796875E-05	146.182625630924	1	
0.22186279296875	3.0621337890625E-05	146.194832630894	1	
0.223876953125	3.092041015625E-05	146.207039630863	1	
0.22686767578125	3.1280517578125E-05	146.219246630832	1	
0.22906494140625	3.16680908203125E-05	146.231453630801	1	
0.23138427734375	3.20220947265625E-05	146.24366063077	1	
0.23406982421875	3.24615478515625E-05	146.255867630739	1	
0.236663818359375	3.28399658203125E-05	146.268074630709	1	
0.239044189453125	3.32733154296875E-05	146.280281630678	1	
0.24090576171875	3.38043212890625E-05	146.292488630647	1	
0.244140625	3.42315673828125E-05	146.304695630616	1	
0.246063232421875	3.47564697265625E-05	146.316902630585	1	
0.248870849609375	3.521728515625E-05	146.329109630555	1	
0.251312255859375	3.57940673828125E-05	146.341316630524	1	
0.253265380859375	3.65203857421875E-05	146.353523630493	1	
0.255828857421875	3.70941162109375E-05	146.365730630462	1	
0.258544921875	3.77044677734375E-05	146.377937630431	1	
0.260498046875	3.84521484375E-05	146.3901446304	1	
0.263519287109375	3.91510009765625E-05	146.40235163037	1	
0.265533447265625	4.013671875E-05	146.414558630339	1	
0.267913818359375	4.09393310546875E-05	146.426765630308	1	
0.270355224609375	4.18487548828125E-05	146.438972630277	1	
0.273040771484375	4.29779052734375E-05	146.451179630246	1	
0.2752685546875	4.40216064453125E-05	146.463386630216	1	
0.277679443359375	4.5361328125E-05	146.475593630185	1	
0.280609130859375	4.6527099609375E-05	146.487800630154	1	
0.282867431640625	4.791259765625E-05	146.500007630123	1	
0.28497314453125	4.9468994140625E-05	146.512214630092	1	
0.287689208984375	5.096435546875E-05	146.524421630061	1	
0.289642333984375	5.291748046875E-05	146.536628630031	1	
0.292388916015625	5.474853515625E-05	146.54883563	1	
0.294952392578125	5.6854248046875E-05	146.561042629969	1	
0.29705810546875	5.94482421875E-05	146.573249629938	1	
0.29949951171875	6.170654296875E-05	146.585456629907	1	
0.302398681640625	6.4422607421875E-05	146.597663629876	1	
0.304412841796875	6.7230224609375E-05	146.609870629846	1	
0.3070068359375	7.025146484375E-05	146.622077629815	1	
0.30975341796875	7.391357421875E-05	146.634284629784	1	
0.311614990234375	7.7117919921875E-05	146.646491629753	1	
0.31414794921875	8.0810546875E-05	146.658698629722	1	
0.316436767578125	8.48388671875E-05	146.670905629692	1	
0.319244384765625	8.87451171875E-05	146.683112629661	1	
0.32098388671875	9.3475341796875E-05	146.69531962963	1	
0.324005126953125	9.7625732421875E-05	146.707526629599	1	
0.3262939453125	0.000102264404296875	146.719733629568	1	
0.32891845703125	0.000107269287109375	146.731940629537	1	
0.331390380859375	0.0001119384765625	146.744147629507	1	
0.333892822265625	0.0001173095703125	146.756354629476	1	
0.336090087890625	0.0001221923828125	146.768561629445	1	
0.338653564453125	0.000127471923828125	146.780768629414	1	
0.3406982421875	0.000133270263671875	146.792975629383	1	
0.34326171875	0.00013836669921875	146.805182629353	1	
0.34576416015625	0.00014410400390625	146.817389629322	1	
0.34832763671875	0.000149444580078125	146.829596629291	1	
0.35040283203125	0.000155181884765625	146.84180362926	1	
0.35296630859375	0.000161468505859375	146.854010629229	1	
0.35565185546875	0.0001671142578125	146.866217629198	1	
0.357879638671875	0.000173065185546875	146.878424629168	1	
0.360321044921875	0.00017913818359375	146.890631629137	1	
0.3626708984375	0.00018511962890625	146.902838629106	1	
0.364837646484375	0.000192108154296875	146.915045629075	1	
0.367889404296875	0.00019818115234375	146.927252629044	1	
0.369903564453125	0.00020489501953125	146.939459629014	1	
0.372314453125	0.000211822509765625	146.951666628983	1	
0.375091552734375	0.000218536376953125	146.963873628952	1	
0.377593994140625	0.000226165771484375	146.976080628921	1	
0.37957763671875	0.000233001708984375	146.98828762889	1	
0.3822021484375	0.0002403564453125	147.000494628859	1	
0.38433837890625	0.000248046875	147.012701628829	1	
0.386688232421875	0.000255279541015625	147.024908628798	1	
0.389495849609375	0.0002633056640625	147.037115628767	1	
0.39202880859375	0.000270843505859375	147.049322628736	1	
0.39410400390625	0.000278839111328125	147.061529628705	1	
0.396636962890625	0.000287322998046875	147.073736628675	1	
0.39910888671875	0.000295196533203125	147.085943628644	1	
0.401275634765625	0.0003035888671875	147.098150628613	1	
0.4044189453125	0.00031207275390625	147.110357628582	1	
0.40679931640625	0.0003204345703125	147.122564628551	1	
0.40887451171875	0.000329559326171875	147.13477162852	1	
0.41180419921875	0.00033758544921875	147.14697862849	1	
0.414215087890625	0.00034637451171875	147.159185628459	1	
0.4163818359375	0.000355194091796875	147.171392628428	1	
0.418853759765625	0.00036395263671875	147.183599628397	1	
0.421539306640625	0.00037310791015625	147.195806628366	1	
0.423583984375	0.000381378173828125	147.208013628335	1	
0.426361083984375	0.00039013671875	147.220220628305	1	
0.4288330078125	0.00039935302734375	147.232427628274	1	
0.431243896484375	0.000407928466796875	147.244634628243	1	
0.433868408203125	0.00041705322265625	147.256841628212	1	
0.436126708984375	0.000425567626953125	147.269048628181	1	
0.438201904296875	0.000434478759765625	147.281255628151	1	
0.44085693359375	0.000443817138671875	147.29346262812	1	
0.44342041015625	0.000452301025390625	147.305669628089	1	
0.445709228515625	0.000461181640625	147.317876628058	1	
0.44842529296875	0.000469970703125	147.330083628027	1	
0.450836181640625	0.00047869873046875	147.342290627996	1	
0.453094482421875	0.00048797607421875	147.354497627966	1	
0.455535888671875	0.00049609375	147.366704627935	1	
0.457733154296875	0.0005029296875	147.378911627904	1	
0.4600830078125	0.00051116943359375	147.391118627873	1	
0.46282958984375	0.0005194091796875	147.403325627842	1	
0.465362548828125	0.0005279541015625	147.415532627812	1	
0.467559814453125	0.00053558349609375	147.427739627781	1	
0.469940185546875	0.0005438232421875	147.43994662775	1	
0.472869873046875	0.0005517578125	147.452153627719	1	
0.47479248046875	0.00055908203125	147.464360627688	1	
0.477142333984375	0.0005670166015625	147.476567627657	1	
0.48028564453125	0.00057373046875	147.488774627627	1	
0.482452392578125	0.0005810546875	147.500981627596	1	
0.484771728515625	0.00058807373046875	147.513188627565	1	
0.487335205078125	0.00059417724609375	147.525395627534	1	
0.489776611328125	0.00060089111328125	147.537602627503	1	
0.4918212890625	0.0006072998046875	147.549809627473	1	
0.4949951171875	0.00061309814453125	147.562016627442	1	
0.496826171875	0.0006195068359375	147.574223627411	1	
0.499176025390625	0.0006243896484375	147.58643062738	1	
0.50189208984375	0.00062896728515625	147.598637627349	1	
0.504058837890625	0.000633544921875	147.610844627318	1	
0.50665283203125	0.0006378173828125	147.623051627288	1	
0.509124755859375	0.00064208984375	147.635258627257	1	
0.511444091796875	0.00064544677734375	147.647465627226	1	
0.51397705078125	0.0006488037109375	147.659672627195	1	
0.516265869140625	0.00065155029296875	147.671879627164	1	
0.51873779296875	0.000653076171875	147.684086627134	1	
0.521209716796875	0.00065521240234375	147.696293627103	1	
0.524078369140625	0.0006561279296875	147.708500627072	1	
0.5260009765625	0.00065673828125	147.720707627041	1	
0.5283203125	0.00065704345703125	147.73291462701	1	
0.5311279296875	0.0006561279296875	147.745121626979	1	
0.53363037109375	0.00065521240234375	147.757328626949	1	
0.535614013671875	0.000653076171875	147.769535626918	1	
0.5384521484375	0.00065093994140625	147.781742626887	1	
0.5406494140625	0.00064849853515625	147.793949626856	1	
0.542877197265625	0.00064453125	147.806156626825	1	
0.54547119140625	0.00064056396484375	147.818363626795	1	
0.54803466796875	0.000635986328125	147.830570626764	1	
0.550079345703125	0.00063079833984375	147.842777626733	1	
0.552886962890625	0.00062591552734375	147.854984626702	1	
0.555511474609375	0.00061981201171875	147.867191626671	1	
0.557708740234375	0.000614013671875	147.87939862664	1	
0.560211181640625	0.00060791015625	147.89160562661	1	
0.562774658203125	0.00060150146484375	147.903812626579	1	
0.565032958984375	0.000595703125	147.916019626548	1	
0.567596435546875	0.0005889892578125	147.928226626517	1	
0.570281982421875	0.00058258056640625	147.940433626486	1	
0.5723876953125	0.0005767822265625	147.952640626455	1	
0.574981689453125	0.0005706787109375	147.964847626425	1	
0.577362060546875	0.000565185546875	147.977054626394	1	
0.57952880859375	0.00055938720703125	147.989261626363	1	
0.582183837890625	0.00055419921875	148.001468626332	1	
0.58489990234375	0.00054931640625	148.013675626301	1	
0.5869140625	0.00054412841796875	148.025882626271	1	
0.589630126953125	0.00053924560546875	148.03808962624	1	
0.592193603515625	0.00053466796875	148.050296626209	1	
0.59417724609375	0.00053009033203125	148.062503626178	1	
0.596832275390625	0.000526123046875	148.074710626147	1	
0.599456787109375	0.0005218505859375	148.086917626116	1	
0.601531982421875	0.000517578125	148.099124626086	1	
0.604156494140625	0.000513916015625	148.111331626055	1	
0.60662841796875	0.00050994873046875	148.123538626024	1	
0.60870361328125	0.000506591796875	148.135745625993	1	
0.611328125	0.00050323486328125	148.147952625962	1	
0.61419677734375	0.0004998779296875	148.160159625932	1	
0.6162109375	0.00049835205078125	148.172366625901	1	
0.618743896484375	0.000495269775390625	148.18457362587	1	
0.621307373046875	0.000492340087890625	148.196780625839	1	
0.62371826171875	0.000489471435546875	148.208987625808	1	
0.626007080078125	0.000486785888671875	148.221194625777	1	
0.628662109375	0.0004842529296875	148.233401625747	1	
0.630859375	0.000481658935546875	148.245608625716	1	
0.6334228515625	0.0004791259765625	148.257815625685	1	
0.6357421875	0.000476715087890625	148.270022625654	1	
0.6383056640625	0.0004742431640625	148.282229625623	1	
0.640594482421875	0.00047198486328125	148.294436625593	1	
0.643341064453125	0.000469635009765625	148.306643625562	1	
0.64544677734375	0.00046746826171875	148.318850625531	1	
0.648284912109375	0.000465240478515625	148.3310576255	1	
0.65032958984375	0.00046295166015625	148.343264625469	1	
0.65313720703125	0.00046075439453125	148.355471625438	1	
0.65509033203125	0.00045849609375	148.367678625408	1	
0.657501220703125	0.000456329345703125	148.379885625377	1	
0.66009521484375	0.000454193115234375	148.392092625346	1	
0.662506103515625	0.0004520263671875	148.404299625315	1	
0.6654052734375	0.000449981689453125	148.416506625284	1	
0.667816162109375	0.000447906494140625	148.428713625254	1	
0.669647216796875	0.00044586181640625	148.440920625223	1	
0.67254638671875	0.000443939208984375	148.453127625192	1	
0.67474365234375	0.00044195556640625	148.465334625161	1	
0.677154541015625	0.000439971923828125	148.47754162513	1	
0.67987060546875	0.000438079833984375	148.489748625099	1	
0.681915283203125	0.00043621826171875	148.501955625069	1	
0.68438720703125	0.000434539794921875	148.514162625038	1	
0.68707275390625	0.00043267822265625	148.526369625007	1	
0.68939208984375	0.000430816650390625	148.538576624976	1	
0.69183349609375	0.000429046630859375	148.550783624945	1	
0.694580078125	0.00042724609375	148.562990624915	1	
0.696929931640625	0.000425567626953125	148.575197624884	1	
0.6990966796875	0.000423736572265625	148.587404624853	1	
0.701690673828125	0.00042193603515625	148.599611624822	1	
0.704071044921875	0.0004202880859375	148.611818624791	1	
0.706451416015625	0.00041851806640625	148.62402562476	1	
0.708831787109375	0.000417022705078125	148.63623262473	1	
0.711456298828125	0.00041546630859375	148.648439624699	1	
0.71368408203125	0.000413970947265625	148.660646624668	1	
0.71649169921875	0.00041253662109375	148.672853624637	1	
0.719146728515625	0.00041107177734375	148.685060624606	1	
0.720977783203125	0.00040960693359375	148.697267624575	1	
0.7236328125	0.000408233642578125	148.709474624545	1	
0.726226806640625	0.00040679931640625	148.721681624514	1	
0.728363037109375	0.000405731201171875	148.733888624483	1	
0.7310791015625	0.000404266357421875	148.746095624452	1	
0.73345947265625	0.00040289306640625	148.758302624421	1	
0.735565185546875	0.00040167236328125	148.770509624391	1	
0.738250732421875	0.000400360107421875	148.78271662436	1	
0.740966796875	0.00039935302734375	148.794923624329	1	
0.743011474609375	0.00039813232421875	148.807130624298	1	
0.7457275390625	0.00039703369140625	148.819337624267	1	
0.748016357421875	0.00039605712890625	148.831544624236	1	
0.75042724609375	0.000394866943359375	148.843751624206	1	
0.75408935546875	0.000393951416015625	148.855958624175	1	
0.75531005859375	0.000392852783203125	148.868165624144	1	
0.75836181640625	0.000391845703125	148.880372624113	1	
0.76019287109375	0.00039105224609375	148.892579624082	1	
0.76263427734375	0.0003900146484375	148.904786624052	1	
0.7659912109375	0.000389129638671875	148.916993624021	1	
0.767822265625	0.00038824462890625	148.92920062399	1	
0.770263671875	0.000387359619140625	148.941407623959	1	
0.7733154296875	0.00038671875	148.953614623928	1	
0.77545166015625	0.000385894775390625	148.965821623897	1	
0.77728271484375	0.00038519287109375	148.978028623867	1	
0.78033447265625	0.000384613037109375	148.990235623836	1	
0.78216552734375	0.000383697509765625	149.002442623805	1	
0.784912109375	0.000383209228515625	149.014649623774	1	
0.7879638671875	0.000382415771484375	149.026856623743	1	
0.79010009765625	0.000381744384765625	149.039063623713	1	
0.792236328125	0.00038128662109375	149.051270623682	1	
0.7952880859375	0.000380523681640625	149.063477623651	1	
0.79742431640625	0.00038006591796875	149.07568462362	1	
0.79925537109375	0.000379486083984375	149.087891623589	1	
0.7977294921875	0.00037335205078125	149.100098623558	1	
0.7952880859375	0.00036834716796875	149.112305623528	1	
0.7928466796875	0.000363555908203125	149.124512623497	1	
0.78948974609375	0.000359344482421875	149.136719623466	1	
0.787353515625	0.00035528564453125	149.148926623435	1	
0.78460693359375	0.00035150146484375	149.161133623404	1	
0.7830810546875	0.0003480224609375	149.173340623374	1	
0.7806396484375	0.000344482421875	149.185547623343	1	
0.77789306640625	0.0003411865234375	149.197754623312	1	
0.7757568359375	0.00033819580078125	149.209961623281	1	
0.77362060546875	0.000335052490234375	149.22216862325	1	
0.77117919921875	0.00033221435546875	149.234375623219	1	
0.76812744140625	0.0003292236328125	149.246582623189	1	
0.7659912109375	0.00032647705078125	149.258789623158	1	
0.76324462890625	0.00032391357421875	149.270996623127	1	
0.76080322265625	0.00032122802734375	149.283203623096	1	
